;============================ SPDUST.2 ===============================
;
;    Rotational emission from a population of spinning dust grains,
;    as described by Ali-Haimoud, Hirata & Dickinson, 2009, MNRAS, 395, 1055
;    and in Silsbee, Ali-Haimoud & Hirata, 2010
;    for an environment with parameters given below. 
;
;    nH = 300.00000 cm^-3
;    T = 20.000000 K
;    Chi = 0.010000000
;    xh = 0.0000000
;    xC = 0.00010000000
;    mu(1E-7 cm) = 9.3000000 debye (this corresponds to beta = 0.38450768 debye)
;
;
;    Diklike grains are asssumed to be randomly oriented with respect to their angular momentum vector.
;
;=====================================================================
;
;nu(GHz)       j_nu/nH(Jy sr-1 cm2/H)     
;
      0.50870968   8.6607363e-24
      0.52658684   9.5778388e-24
      0.54509225   1.0613454e-23
      0.56424797   1.1785285e-23
      0.58407686   1.3113779e-23
      0.60460259   1.4622592e-23
      0.62584964   1.6339082e-23
      0.64784335   1.8294997e-23
      0.67060997   2.0527059e-23
      0.69417665   2.3077792e-23
      0.71857153   2.5996438e-23
      0.74382369   2.9339948e-23
      0.76996326   3.3174346e-23
      0.79702144   3.7575928e-23
      0.82503050   4.2633113e-23
      0.85402386   4.8448119e-23
      0.88403611   5.5139316e-23
      0.91510305   6.2843399e-23
      0.94726176   7.1718587e-23
      0.98055059   8.1947724e-23
       1.0150093   9.3742200e-23
       1.0506789   1.0734621e-22
       1.0876020   1.2304175e-22
       1.1258227   1.4115465e-22
       1.1653866   1.6206071e-22
       1.2063408   1.8619397e-22
       1.2487342   2.1405469e-22
       1.2926174   2.4622030e-22
       1.3380428   2.8335603e-22
       1.3850645   3.2622888e-22
       1.4337387   3.7572221e-22
       1.4841234   4.3285306e-22
       1.5362787   4.9879286e-22
       1.5902668   5.7488849e-22
       1.6461523   6.6269083e-22
       1.7040016   7.6398116e-22
       1.7638839   8.8080903e-22
       1.8258706   1.0155268e-21
       1.8900357   1.1708383e-21
       1.9564556   1.3498464e-21
       2.0252097   1.5561114e-21
       2.0963800   1.7937191e-21
       2.1700513   2.0673508e-21
       2.2463116   2.3823787e-21
       2.3252519   2.7449484e-21
       2.4069663   3.1621106e-21
       2.4915523   3.6419231e-21
       2.5791108   4.1936228e-21
       2.6697464   4.8277615e-21
       2.7635670   5.5564182e-21
       2.8606848   6.3933962e-21
       2.9612154   7.3544632e-21
       3.0652790   8.4576520e-21
       3.1729995   9.7235187e-21
       3.2845056   1.1175583e-20
       3.3999302   1.2840621e-20
       3.5194111   1.4749260e-20
       3.6430909   1.6936341e-20
       3.7711170   1.9441675e-20
       3.9036422   2.2310583e-20
       4.0408246   2.5594730e-20
       4.1828280   2.9353012e-20
       4.3298216   3.3652397e-20
       4.4819809   3.8569333e-20
       4.6394875   4.4190572e-20
       4.8025291   5.0615180e-20
       4.9713004   5.7955480e-20
       5.1460026   6.6339650e-20
       5.3268443   7.5913032e-20
       5.5140412   8.6841125e-20
       5.7078165   9.9311859e-20
       5.9084016   1.1353850e-19
       6.1160356   1.2976362e-19
       6.3309663   1.4826156e-19
       6.5534502   1.6934445e-19
       6.7837527   1.9336439e-19
       7.0221484   2.2072134e-19
       7.2689219   2.5186535e-19
       7.5243676   2.8730585e-19
       7.7887902   3.2761557e-19
       8.0625051   3.7343838e-19
       8.3458390   4.2549701e-19
       8.6391299   4.8459823e-19
       8.9427276   5.5164342e-19
       9.2569945   6.2762932e-19
       9.5823053   7.1366346e-19
       9.9190483   8.1095842e-19
       10.267625   9.2084606e-19
       10.628452   1.0447706e-18
       11.001959   1.1842952e-18
       11.388591   1.3410925e-18
       11.788811   1.5169360e-18
       12.203095   1.7136939e-18
       12.631939   1.9332952e-18
       13.075852   2.1777313e-18
       13.535366   2.4490062e-18
       14.011028   2.7491198e-18
       14.503406   3.0800072e-18
       15.013087   3.4435143e-18
       15.540680   3.8413338e-18
       16.086813   4.2749566e-18
       16.652138   4.7456372e-18
       17.237330   5.2543346e-18
       17.843087   5.8016535e-18
       18.470132   6.3877889e-18
       19.119213   7.0125165e-18
       19.791103   7.6750929e-18
       20.486605   8.3742723e-18
       21.206549   9.1082704e-18
       21.951793   9.8747003e-18
       22.723227   1.0670527e-17
       23.521770   1.1492080e-17
       24.348376   1.2334971e-17
       25.204031   1.3194059e-17
       26.089755   1.4063380e-17
       27.006606   1.4936110e-17
       27.955676   1.5804378e-17
       28.938099   1.6659339e-17
       29.955047   1.7491059e-17
       31.007732   1.8288509e-17
       32.097411   1.9039666e-17
       33.225384   1.9731664e-17
       34.392996   2.0350917e-17
       35.601640   2.0883557e-17
       36.852759   2.1315764e-17
       38.147845   2.1634189e-17
       39.488442   2.1826322e-17
       40.876152   2.1880742e-17
       42.312628   2.1787550e-17
       43.799586   2.1538774e-17
       45.338798   2.1129560e-17
       46.932102   2.0558856e-17
       48.581398   1.9830796e-17
       50.288653   1.8955513e-17
       52.055905   1.7949048e-17
       53.885263   1.6832861e-17
       55.778908   1.5632141e-17
       57.739099   1.4374528e-17
       59.768176   1.3088290e-17
       61.868559   1.1800477e-17
       64.042755   1.0535913e-17
       66.293356   9.3161743e-18
       68.623048   8.1590492e-18
       71.034611   7.0781447e-18
       73.530921   6.0831201e-18
       76.114957   5.1798546e-18
       78.789801   4.3708191e-18
       81.558645   3.6555317e-18
       84.424793   3.0311295e-18
       87.391663   2.4928803e-18
       90.462796   2.0346178e-18
       93.641854   1.6491671e-18
       96.932632   1.3286385e-18
       100.33905   1.0647513e-18
       103.86519   8.4921218e-19
       107.51523   6.7414886e-19
       111.29355   5.3250065e-19
       115.20465   4.1826193e-19
       119.25319   3.2652209e-19
       123.44401   2.5331269e-19
       127.78210   1.9536734e-19
       132.27263   1.4990753e-19
       136.92098   1.1452133e-19
       141.73268   8.7130254e-20
       146.71348   6.5996768e-20
       151.86930   4.9722485e-20
       157.20632   3.7218117e-20
       162.73089   2.7649227e-20
       168.44961   2.0374027e-20
       174.36929   1.4889662e-20
       180.49701   1.0793890e-20
       186.84006   7.7634266e-21
       193.40603   5.5404321e-21
       200.20273   3.9227518e-21
       207.23829   2.7546958e-21
       214.52109   1.9180031e-21
       222.05983   1.3236682e-21
       229.86349   9.0512519e-22
       237.94140   6.1300579e-22
       246.30317   4.1099872e-22
       254.95880   2.7264157e-22
       263.91860   1.7883051e-22
       273.19327   1.1590220e-22
       282.79388   7.4172511e-23
       292.73187   4.6838160e-23
       303.01910   2.9166305e-23
       313.66785   1.7897251e-23
       324.69082   1.0812854e-23
       336.10115   6.4249271e-24
       347.91248   3.7497759e-24
       360.13888   2.1466417e-24
       372.79494   1.2038244e-24
       385.89576   6.6052923e-25
       399.45697   3.5412993e-25
       413.49475   1.8521905e-25
       428.02586   9.4302530e-26
       443.06761   4.6626703e-26
       458.63797   2.2317290e-26
       474.75550   1.0333641e-26
       491.43944   4.6145148e-27
